proteinName,peptideSeq,charge,old_Rsquared,new_Rsquared,NDP,rateconstant,sigma,Abundance,MassToCharge,RMSE,selected_A1A0_count, selected_A2A0_count, selected_A2A1_count,improved_timePoints,new_k,I0_percentatediffI0_percentatediff,selected_io_t,i0,I0_asymptote,new_rmse,lowerci_old,upperci_old,sigma_old,lowerci_new,upperci_new,sigma_new,old_pearson,new_pearson
MYO6_MOUSE,STGASFIR,2,0.611571378555577,0.898129901810826,12,0.14772,0.0271088088767696,25861266.6666667,419.72452,0.0522525780075237,8,0,2,2| 3| 6| 7| 9| 13| 16| 21| 24| 31,0.191507162267303,-0.00362929981335573|,0.643525735287695| 0.516549068901397| 0.51474173408409| 0.511694031072343| 0.391068814220329| 0.419203773385211| 0.363748377490495| 0.346413579395887| 0.344411428637496| 0.33550443734816| 0.318051870806809| 0.310727524277317,0.643525735287695,0.30289194586217,0.0320794200052232,0.0954937718597337,0.199946228140266,0.0237285689693716,0.115656756966154,0.179783243033846,0.0145676779810132,0.910382333544567,0.973621108686103
MYO6_MOUSE,LSFISVGNK,2,0.0632052369165713,0.820737457751482,12,0.39483,0.190543193368846,54587950,482.77673,0.0761193264311243,0,3,6,1| 2| 6| 7| 9| 16| 21| 24| 31,0.527380280070352,,0.562710231857899| 0.412976544879955| 0.418860723146505| 0.389175195741352| 0.346292881272277| 0.333530701372337| 0.363559287596231| 0.314039271300054| 0.305020942947068| 0.305020942947068| 0.322413318446546| 0.377371815176011,0.562710231857899,0.319761495483715,0.0293228438684946,0,0.793645709764653,0.181198727386618,0.224064626365874,0.565595373634126,0.0775858814650597,0.52882101640347,0.924378131000034
MYO6_MOUSE,VMLTTAGGTK,2,0.5187254667695,0.877317586808403,12,0.14113,0.0296949682378168,38255734.5454545,489.76807,0.0426089076519413,7,1,2,1| 2| 3| 7| 9| 13| 16| 21| 24| 31,0.202398265046554,-0.00973798812201055|0.015720289377848|0.0328919272193704|0.00470049101752797|,0.593271400299309| 0.527600229743282| 0.489226712193292| 0.500520914153983| 0.401350783281578| 0.422764069578283| 0.399300845974295| 0.391545269314426| 0.383310690123823| 0.365469146661263| 0.379908387045833| 0.36011802152324,0.593271400299309,0.353386255651444,0.0250644344845313,0.0997448043573805,0.18251519564262,0.018803032577413,0.116785406768761,0.165474593231239,0.0110607711888996,0.901056158895518,0.966713152854991
MYO6_MOUSE,SSEDLLSALQK,2,0.754626441103333,0.983048329038819,12,0.17705,0.0277141904727512,56585572.5,595.81677,0.0453205852945074,3,2,4,1| 2| 3| 6| 7| 16| 21| 24| 31,0.175554349834034,-0.0212100917197354|,0.545822703535749| 0.472286360528323| 0.430159637765161| 0.411887480451845| 0.290353947175309| 0.29104159779674| 0.25337439146502| 0.235530958608435| 0.226368064084312| 0.222620736363141| 0.204757007060644| 0.192383285673656,0.545822703535749,0.184752018517286,0.0148229469353422,0.123724521550878,0.230375478449122,0.0242280045536959,0.15960890271018,0.19449109728982,0.00792422303275481,0.947958385576876,0.994737681396218
MYO6_MOUSE,IQEEMEKER,3,-0.600038327183168,0.587079297913178,12,0.07912,0.0282081990166357,8400010.125,397.86063,0.112500922138987,4,3,4,1| 2| 3| 6| 7| 9| 13| 16| 21| 24| 31,0.0682813442456134,-0.0215572057614302|,0.49267785100204| 0.423814234361225| 0.316786381191897| 0.415749163898304| 0.360680885587051| 0.306362490419974| 0.469607209827657| 0.311666395287618| 0.228243986685645| 0.244685711031224| 0.211767085455118| 0.208503653223839,0.49267785100204,0.151771721392235,0.0616390260824745,0.0129305573788246,0.145309442621175,0.0300726437693843,0.042854939211692,0.115385060788308,0.0164767402651152,0.324962665932705,0.811891451159803
MYO6_MOUSE,NLEISIDALMAK,2,-0.397196286925491,-0.313139752285259,10,0.00696,0.00565974586424134,47930265,659.35773,0.0562227565955256,7,0,0,1| 2| 3| 6| 9| 13| 16,NaN,,0.446199363248554| 0.367213628044678| 0.415098805336003| 0.42331914953201| 0.407157874255894| 0.422268121009059| 0.440678886424675| 0.443502782413217| 0.429424296932202| NaN| NaN| 0.374298726822202,0.446199363248554,0.151031154415692,0.0271582789949025,0,0.0204933770730312,0.00598250965811595,0.0013175428847197,0.0126024571152803,0.00249428165678892,-0.206821203236466,0.247312784218578
MYO6_MOUSE,ASFHELYNMYK,3,0.962896518566549,0.970928678250975,12,0.22768,0.0214683269755517,25130390,468.22018,0.0165104207747329,3,3,0,1| 2| 7| 21| 24| 31,0.226583394652382,0.0590442814414011|0.0342043718637156|,0.407115718031503| 0.398648796669011| 0.31578162294376| 0.291976331887243| 0.238468788284402| 0.221764414391591| 0.198085253346888| 0.164707125484225| 0.176853138324675| 0.165819543185932| 0.189505519945015| 0.163874846672847,0.407115718031503,0.174393342460535,0.0145100300322278,0.176296875747054,0.279063124252946,0.0233455114626165,0.182522418238005,0.272837581761995,0.0205169860333718,0.985896650811083,0.988460678452365
MYO6_MOUSE,ILKEEQELYQK,2,0.967065215291789,0.983838511104902,12,0.28205,0.0246193650422607,5648247.25,710.8877,0.0184983561250081,2,2,1,1| 6| 16| 24| 31,0.311365724772606,,0.45125733729424| 0.375686591609342| 0.33010060341848| 0.258829940720448| 0.207388085022583| 0.171868232848879| 0.176629591520439| 0.137992604206025| 0.147287039989177| 0.14889304370122| 0.145987183550173| 0.134541695348255,0.45125733729424,0.15274319553911,0.0129943589600047,0.233780055240431,0.330319944759569,0.0219310632638259,0.24814228490647,0.31595771509353,0.0154056991063903,0.989538477136781,0.996036055483698
MYO6_MOUSE,PTYATAMLQNLLK,2,0.955469155389337,0.977737397214397,12,0.33993,0.0345373849163073,18263958,732.39996,0.0173215627743027,3,1,1,1| 7| 9| 24| 31,0.348005356000412,-0.0411749199439351|,0.414023409466481| 0.341519383866428| 0.28295792512012| 0.24049133349058| 0.186710596578927| 0.216323723737442| 0.172418912483309| 0.157777091910267| 0.170188393726519| 0.172560985367846| 0.156189207455899| 0.145420247895812,0.414023409466481,0.161408779889227,0.0120598925922363,0.271679600666358,0.408180399333642,0.0310090229649736,0.292411626740859,0.387448373259141,0.0215895927648378,0.978916937709469,0.988921616482352
MYO6_MOUSE,LVGILDILDEENR,2,-0.754875872100194,0.334327091104544,12,0.21991,0.104145326776758,10889392.1,749.90918,0.101374848568174,3,1,6,2| 3| 6| 7| 9| 13| 16| 21| 24| 31,0.223339712477762,,0.426157678769914| 0.369651069573686| 0.312903672684559| 0.272520641308681| 0.204841657353364| 0.190300039391421| 0.184494439402317| 0.174217933676009| 0.232798581854874| 0.228440890315483| 0.270639152746628| 0.261889857206923,0.426157678769914,0.144247373459111,0.0602292475104169,0,0.466069089527584,0.11184041316569,0.0799999315281491,0.359820068471851,0.0635670203930389,0.494502258454449,0.8323423122205
MYO6_MOUSE,cGGIQYLQSAIESR,2,0.870747066638364,0.974592629317577,12,0.25147,0.033365013423704,14802384.5454545,791.38812,0.0327490272139235,5,0,5,1| 2| 3| 6| 9| 13| 16| 21| 24| 31,0.267477823714494,,0.42722578098062| 0.336053597881294| 0.30489668869303| 0.209489474600041| 0.169997202933544| 0.148920828579413| 0.122187705780772| 0.116466708718584| 0.110246263456147| 0.0950828728137871| 0.11796420433746| 0.106523399308221,0.42722578098062,0.0902913562915343,0.0166409444421084,0.181654958604799,0.321285041395201,0.0317199055692156,0.215994496636435,0.286945503363565,0.016118011165285,0.968539630337939,0.990491523265829
MYO6_MOUSE,TVYSHLFDHVVNR,4,0.937689083686911,0.959206162949214,12,0.21121,0.0223777461204007,39600123.75,397.45731,0.0194422292575226,0,0,5,3| 13| 16| 21| 31,0.254471068739314,,0.418344355516378| 0.331223399526551| 0.327945682657927| 0.299466452851439| 0.219347822591787| 0.23331707180382| 0.210620953009244| 0.191267227366461| 0.188775295652095| 0.182165134226301| 0.173515098609927| 0.189129398888332,0.418344355516378,0.179203276185848,0.0151460319200071,0.175672511918261,0.246747488081739,0.0161461734261376,0.183525318284058,0.238894681715942,0.0125783136727301,0.982439822385251,0.987310165629459
MYO6_MOUSE,SSVVGGFVSHYLLEK,3,0.814777315915755,0.93934911790819,12,0.07833,0.0135788248435255,41338925,541.29102,0.0391937745017018,3,2,2,0| 2| 3| 7| 21| 24| 31,0.0869392674427716,0.0542987576137548|0.037501616725995|0.0195347051382362|,0.429624788450912| 0.331596846752232| 0.347413217805055| 0.318400743468439| 0.264073966518137| 0.27492746898055| 0.233974810030757| 0.213396830518308| 0.20641479313151| 0.186307726089537| 0.170933459642344| 0.146826100126982,0.37829,0.134220033815935,0.0197379085980073,0.0471142638756315,0.109545736124368,0.0141826199963635,0.0626098160096689,0.0940501839903311,0.00714233984165874,0.919767428463916,0.97112251192825
MYO6_MOUSE,IAQNESELISDEAQGDMALR,2,-0.13427601765046,-0.191342112346464,11,2E-05,0.00821025971285982,5321624,1095.52075,0.112183294554536,6,3,0,1| 2| 3| 7| 9| 13| 16| 21| 24,NaN,,0.29647659173879| 0.253112565953809| 0.233962512429242| 0.352924572950786| NaN| 0.287597531090627| 0.292223336287502| 0.376179308173521| 0.437220472983133| 0.367154820940058| 0.369060221871799| 0.278783760132748,0.29647659173879,0.0256056779014564,0.0618287758245992,0,0.0200029397840351,0.00896844457065967,0,0.0110330057143404,0.00494269273554685,-0.556136896303096,-0.402126251086351
MYO6_MOUSE,SAPSLEYcAELLGLDQDDLR,2,0.859209811932752,0.961583042581447,6,0.25448,0.0421702700724769,3807052.75,1133.03882,0.0240300537782795,1,0,1,0| 1,NaN,,0.294273061013736| 0.212645728914277| 0.180191296893977| 0.148006918762108| 0.0931193554220808| NaN| NaN| NaN| NaN| 0.066378287494099| NaN| NaN,0.294273061013736,0.0388320537177127,0.0104927993735854,0.0865441419929258,0.422415858007074,0.0653299014783089,0.181150273734805,0.327809726265195,0.0285265091636044,0.940872343706846,0.98761933604605
MYO6_MOUSE,DVEDNcSLMYLNEATLLHNVK,3,0.901468736085967,0.976288837695293,12,0.22417,0.0276118780369152,8060543,826.72614,0.0169607956998026,2,2,4,1| 2| 3| 6| 16| 21| 24| 31,0.215270374571696,0.00191451088049625|0.0720602672146184|,0.228289632355924| 0.200412570569821| 0.161391364050264| 0.144053657869659| 0.087130626346415| 0.10177250914975| 0.0646068047905127| 0.0600996464598206| 0.0408530185570663| 0.0469903463799877| 0.0453140964330488| 0.067657610350199,0.228289632355924,0.0460277797157243,0.00947268161877576,0.159046674447094,0.289293325552906,0.0295882620078695,0.187798326180137,0.260541673819863,0.0165251790431465,0.967877411595492,0.989002763059305
MYO6_MOUSE,MSQSIIVSGESGAGK,2,0.530203783457977,0.934031609152325,12,0.06775,0.0102709150783846,28193688,725.86395,0.0482759395036678,5,0,5,1| 2| 3| 6| 7| 9| 13| 21| 24| 31,0.0672361241263456,,0.438695309895578| 0.448778591347131| 0.375798535423433| 0.33281471719875| 0.327683736535898| 0.306918312225955| 0.250657596024126| 0.236423463511779| 0.208996638238333| 0.193618287637646| 0.192351576795055| 0.175438738429487,0.438695309895578,0.0971866478813747,0.0235802988778423,0.0445049131606611,0.0909950868393389,0.0105612192552926,0.0563959776702768,0.0791040223297232,0.00515860921847626,0.90605234570446,0.972291057505995
MYO6_MOUSE,LQQFFNER,2,0.905359701000122,0.986350843314145,12,0.27419,0.034842652834506,42160774.2857143,541.2749,0.0291404456696027,2,3,0,1| 3| 13| 21| 24,0.311347389175198,,0.560702003075354| 0.452412380668397| 0.414262948937692| 0.370349460844172| 0.295006124731834| 0.284544547885118| 0.265709904073883| 0.239677371729291| 0.229997010890793| 0.249546762001256| 0.232777349685583| 0.240521476151106,0.560702003075354,0.240184036404758,0.0119314589323823,0.221627822129246,0.326752177870754,0.023881205041973,0.252668590417865,0.295711409582135,0.00977808028211903,0.968959309233835,0.996293658612404

