proteinName,peptideSeq,charge,old_Rsquared,new_Rsquared,NDP,rateconstant,sigma,Abundance,MassToCharge,RMSE,selected_A1A0_count, selected_A2A0_count, selected_A2A1_count,improved_timePoints,new_k,I0_percentatediffI0_percentatediff,selected_io_t,i0,I0_asymptote,new_rmse,lowerci_old,upperci_old,sigma_old,lowerci_new,upperci_new,sigma_new,old_pearson,new_pearson
MYO1C_MOUSE,PQDGVAVLVR,2,0.730729725602942,0.906100948317678,12,0.04177,0.00657451185524116,12582043.4444444,527.30621,0.0461899618913717,2,1,2,0| 1| 6| 16| 21,0.0585162040844937,-0.0271871860152148|,0.590297814504783| 0.503370494473538| 0.522452581625685| 0.550236924800833| 0.449912664312386| 0.414784926855586| 0.446863818781502| 0.422720859260322| 0.367777190437961| 0.352573947223858| 0.338969582356798| 0.310980428327922,0.590297814504783,0.230130103351579,0.0259925891612381,0.0266561569697914,0.0568838430302086,0.00686685367687997,0.0332649504947516,0.0502750495052484,0.00386420120616769,0.855168277684849,0.953121517368893
MYO1C_MOUSE,YLGLMENLR,2,0.322318264154642,0.745886102743624,12,0.03563,0.0109453404261464,8597782.36363636,554.79462,0.0601460367275717,3,1,2,1| 2| 3| 9| 16| 31,0.0300922381245378,0.0226484727511629|,0.478906065656104| 0.480867898331511| 0.540318200028976| 0.465898945948169| 0.43693894208284| 0.42249230656188| 0.438591289952917| 0.40392980661946| 0.359846890961365| 0.417225961666486| 0.356401626610361| 0.311099675794089,0.478906065656104,0.247674855187308,0.0304366856374159,0.0075908678502693,0.0636691321497307,0.0127393553918791,0.0214408979872967,0.0498191020127033,0.00644670499308554,0.619225348650867,0.897027346029494
MYO1C_MOUSE,MSLLQLVEILR,2,0.933092177285911,0.967900438370944,12,0.03787,0.00278147924865793,9115422.83333333,657.89429,0.0175437718402011,5,0,2,6| 7| 9| 13| 16| 24| 31,0.042606526349079,-0.00388378154539709|,0.468288272636206| 0.459627657025344| 0.433427874528988| 0.43720479439441| 0.389856023019971| 0.403153806331525| 0.366674153846194| 0.359804038039358| 0.327940824944765| 0.308392177671934| 0.29568889953277| 0.270216923081915,0.468288272636206,0.191368488296205,0.0113722996304271,0.0319788114204093,0.0437611885795907,0.00267661440429804,0.0340511882691648,0.0416888117308352,0.00173504656114164,0.99036102397747,0.992080660832639
MYO1C_MOUSE,LLQSNPVLEAFGNAK,2,0.665187016534403,0.842751709695747,12,0.02491,0.00508276573350417,12742602.9090909,800.93829,0.0440281537571704,8,1,1,0| 1| 2| 3| 6| 9| 13| 16| 24| 31,0.0339718305162988,0.023794411964289|-0.00103148970264464|0.0475711222998557|,0.411333915666621| 0.410615035287441| 0.332589372838226| 0.378890505083745| 0.351798395438901| 0.353496214286347| 0.330904783242949| 0.306277433128471| 0.23697639590145| 0.243010749527137| 0.256681586157412| 0.23942543724906,0.411333915666621,0.100126239545078,0.0245329027935381,0.0132254635436144,0.0365945364563856,0.00530877566796209,0.0183992660125369,0.0314207339874631,0.00295809990428235,0.85392341247031,0.92642898785154
MYO1C_MOUSE,LLQFYAETcPAPER,2,0.774015152707318,0.858354769872329,12,0.03228,0.00519792568870273,6641119.33333333,847.91394,0.0373245152670238,5,2,1,0| 1| 2| 3| 7| 13| 16| 21,0.0341428210248282,0.01275311705215|,0.419479916048751| 0.36318504955811| 0.365420696441997| 0.341509817074387| 0.31447687637625| 0.2648464096853| 0.295720160954885| 0.25206990812506| 0.206771130206909| 0.236250493448688| 0.212202110809214| 0.205963388137669,0.36382,0.0805990979037776,0.0257322149492323,0.0203307276172734,0.0442292723827266,0.00542905631832767,0.0240419493986864,0.0405180506013136,0.00374289239003517,0.896286251957134,0.931448402692418
MYO1C_MOUSE,QLLLTPSAVVIVEDAK,2,0.578610725764889,0.925595203717515,12,0.03665,0.00799242472953969,5293616.5,848.49817,0.0501043450891161,2,4,3,0| 1| 2| 6| 7| 16| 21| 24| 31,0.0301460055350094,-0.0443736160152588|,0.34617829689468| 0.327698562098991| 0.347873346787302| 0.350651757399472| 0.31908277245069| 0.317291865523972| 0.277532173745605| 0.257069606177658| 0.224586125209289| 0.237332549985021| 0.213345217123677| 0.193020910324138,0.34617829689468,0.092589768247663,0.0150190531533468,0.0182765822539019,0.0550234177460981,0.00834781537392373,0.0311424669258428,0.0421575330741572,0.0025023035944745,0.820407208046093,0.969347004029171
MYO1C_MOUSE,DGIIDFTSGSELLITK,2,0.775532309537282,0.893002282132145,12,0.03035,0.00512172289726492,7366959.33333333,854.9538,0.0322431679279866,3,2,3,0| 1| 3| 6| 9| 16| 21| 31,0.018941577214224,0.0624924635338691|,0.34401801847322| 0.382815341421861| 0.346956681434198| 0.359244558738614| 0.320281964513846| 0.322653759945622| 0.328177459628354| 0.2907666041411| 0.304356629539153| 0.260405821353949| 0.255148038222885| 0.233319452085068,0.34401801847322,0.122060086369628,0.014173619773385,0.0185759067109633,0.0421240932890367,0.00534946509846301,0.0251742827185005,0.0355257172814995,0.00235154574345644,0.936248787787308,0.955698077861551
MYO1C_MOUSE,GEELLSPLNLEQAAYAR,3,-0.344493715767575,0.698082927493558,12,0.02949,0.02256326759112,1941400.5,625.32666,0.177915963700323,1,2,2,1| 2| 3| 21| 31,0.0282570185373189,0.0126842319670391|,0.432327376253062| 0.412243150839966| 0.408419675377967| 0.315150111166135| 0.288132327133581| 0.338181759116565| 0.293300865087516| 0.305203924371617| 0.231057203257533| 0.203847015278035| 0.175407585677503| 0.099536995208178,0.33911,0.0447487027553599,0.0532456895910388,0,0.0828888515859716,0.0242613410514716,0.013966740156906,0.045013259843094,0.00705286893066548,0.0590766366179175,0.9559077799994
MYO1C_MOUSE,VLQSLGSEPIQYAVPVVK,2,0.66621163925596,0.874213324112257,12,0.02483,0.00583735817874414,5556599,964.04858,0.042761521778427,2,5,0,0| 1| 2| 3| 6| 13| 16,0.0295174528142683,,0.344974106733535| 0.324758045768075| 0.307277908902588| 0.2964707393228| 0.293435834809588| 0.253303115274019| 0.257913470748095| 0.246985404895508| 0.224998603396058| 0.162101612975879| 0.199905578081485| 0.179109551745187,0.344974106733535,0.0729080064197819,0.0197497568021075,0.0114107656648591,0.0382492343351409,0.00609692177237761,0.0186322174242819,0.0310277825757181,0.00281591293382547,0.928490180983603,0.956265957307142
MYO1C_MOUSE,VNNININQGSITFAGGPGR,2,0.989070196782802,0.992079493816384,12,0.02555,0.000655417837856627,273588550,965.00049,0.00519227710973318,0,3,0,1| 2| 16,0.0248432064810512,0.0232807074594063|0.00516308092669638|-0.0146090338623957|,0.33455211702739| 0.327201742055942| 0.331261103218097| 0.315832026601929| 0.305017095678637| 0.292191767407233| 0.281620366736526| 0.256491640205381| 0.243615906362031| 0.223270299171193| 0.212054721232206| 0.185538177507928,0.33455211702739,0.0613886164248906,0.00432249551349129,0.0240447885033068,0.0270552114966932,0.0006838808025127,0.0242969332233606,0.0268030667766394,0.00056932086599975,0.997210118454203,0.99761809663218
MYO1C_MOUSE,IDYANLTGISVSSLSDSLFVLHVQR,3,-4.47507260399663,-2.91954936256893,12,3E-05,0.0120895440721339,292867050,912.15186,0.107062192426365,0,1,10,0| 1| 2| 3| 6| 7| 9| 13| 16| 21| 24,2.49907848707854E-05,,0.30736223127041| 0.312936507861115| 0.296890234547691| 0.288879212370331| 0.267884186483781| 0.253730695000813| 0.254792921785445| 0.249524618241431| 0.252672697585883| 0.219156257887377| 0.205788212671842| 0.217409709147093,0.20236,0.0279910642329165,0.067499983670909,0,0.0278246217599845,0.0126282640522702,0,0.0175548992657956,0.00796229779016163,0.971005524449586,0.925659624590902
MYO1C_MOUSE,GEELLSPLNLEQAAYAR,2,0.88941095989583,0.955693029936346,12,0.03911,0.00358462881640369,4459495.75,937.48633,0.0234819621308639,1,5,0,0| 6| 7| 13| 16| 31,0.0414078742858406,0.0427027091753973|0.0406750315733845|,0.343512881836261| 0.325771148983181| 0.314382439671152| 0.271951584928512| 0.27811536607865| 0.265200115199609| 0.251885100637521| 0.212581500876539| 0.195217243951929| 0.172998326367694| 0.148159284131475| 0.158011136659025,0.343512881836261,0.0453297037596293,0.013447835168107,0.0308694616230713,0.0473505383769287,0.00374402269098481,0.0343907435268051,0.0438292564731949,0.00214415642668289,0.943494228334175,0.981166207391966
MYO1C_MOUSE,YMDVQFDFK,2,0.811454727763186,0.844686133042989,12,0.05248,0.00967716785233459,8950311.5,596.77081,0.0346925987246229,2,3,3,2| 3| 6| 7| 9| 13| 24| 31,0.0669624196331126,-0.0215066156216658|-0.000944921559950804|,0.505213597305535| 0.515963899885511| 0.475982849126469| 0.473871178675145| 0.454052154219676| 0.421040750354235| 0.402827011494671| 0.368326828980296| 0.356613924966012| 0.349901323387307| 0.333118169526332| 0.384364535146178,0.505213597305535,0.300934009908327,0.0239672597929284,0.0355847876505548,0.0693752123494452,0.00767620457692782,0.0408080019796139,0.0641519980203861,0.00530307892986749,0.976225708400169,0.930916289910342
MYO1C_MOUSE,HLGYKPEEYK,3,0.444888039465764,0.693901925124495,12,0.04525,0.0090734342820144,8876924.66666667,421.88379,0.0505418447670075,8,0,0,1| 2| 6| 7| 9| 13| 16| 24,0.0528846129745663,,0.508124241818217| 0.397739582854086| 0.472090938283777| 0.478516899063907| 0.457797453818984| 0.364260612935029| 0.414298831069111| 0.353262016851623| 0.346385377290037| 0.329956359428543| 0.318450619465824| 0.309166174726875,0.508124241818217,0.228158594864593,0.0366082160722895,0.0272965114319234,0.0632034885680766,0.00815702391113281,0.0322460190060066,0.0582539809939934,0.00590825473866578,0.865952493226783,0.884168445567501
MYO1C_MOUSE,KRPETVATQFK,3,0.769325236227168,0.863826592570669,12,0.02866,0.00355873355676429,3331810,435.58221,0.0275391623900673,1,2,5,0| 2| 3| 13| 16| 21| 24| 31,0.0319695130738976,0.00890421739027913|0.037569489859973|-0.0265870058699216|-0.0261124808876121|,0.489539693939145| 0.46134245529445| 0.460040404337824| 0.44377868271722| 0.429494419106358| 0.402358551048363| 0.388492171741484| 0.378577010189427| 0.361361687080303| 0.355550062179565| 0.325140440002487| 0.350414744382084,0.489539693939145,0.190849123260651,0.0184885880604065,0.0204789910448799,0.0368410089551201,0.00371697597439446,0.0231676287235131,0.0341523712764868,0.0024954149529905,0.900289302020314,0.950362732429562
MYO1C_MOUSE,DQAVMISGESGAGK,2,-0.645300031870821,-0.771934162707511,7,0.02086,0.0128284223113067,1196754.5,675.3219,0.0933089598210939,2,1,1,2| 6| 13| 21,NaN,,NaN| NaN| 0.399461557068332| 0.224520431293947| 0.375222656528119| 0.406570312815046| 0.426153618226884| 0.388178111398501| NaN| 0.328495460411861| NaN| NaN,NaN,NaN,0.0647104209802389,0,0.0599351454460508,0.0159691675978709,0,0.0512609310864605,0.0124242036237916,-0.353044047346172,-0.0846203637181434
MYO1C_MOUSE,NFHVFYQLLEGGEEETLR,3,0.333240094965477,0.417043974372013,12,0.01286,0.00592911775581299,4679379,727.69189,0.049995320675501,3,5,0,0| 1| 3| 6| 7| 13| 24| 31,0.0115245063798863,,0.282899434887071| 0.314326413374812| 0.266071090915979| 0.281923268430896| 0.263767026749342| 0.224410119718449| 0.236935518762154| 0.259184043160749| 0.233459642866375| 0.24050586484655| 0.245172509609682| 0.217818336111839,0.282899434887071,0.0544140473278379,0.0205008991706394,0,0.028269322494368,0.00700110240771901,0.00727085956957143,0.0184491404304286,0.00253938124397453,0.874256879879743,0.730500811230239
MYO1C_MOUSE,LLGVEGTTLR,2,0.551507984804236,0.810181391557098,12,0.02595,0.00715894611795901,19542675,529.81384,0.0540825060987834,5,2,1,0| 1| 3| 6| 7| 9| 16| 24,0.0268307637341962,0.0463133509848399|,0.610614652287692| 0.592941703599474| 0.531024594095211| 0.513688245147209| 0.528546240346592| 0.499792207697936| 0.512070831107524| 0.437481840474199| 0.449656962091491| 0.429036673655144| 0.422977126018136| 0.392617396600591,0.54392,0.281297976564402,0.0285139222141172,0.00949262791353889,0.0424073720864611,0.00747727535596469,0.0172731789469036,0.0346268210530964,0.00394224423483787,0.885696569366271,0.940483407634792
MYO1C_MOUSE,ENLIYTYIGPVLVSVNPYR,3,-1.37957975052428,-0.104076982095155,12,6E-05,0.0114587989855872,7142830.5,737.40002,0.109565868310616,0,5,5,0| 1| 2| 3| 6| 7| 9| 13| 24| 31,0.000263338661585312,,0.342503345805444| 0.350576760175816| 0.263958324200216| 0.262509417088986| 0.221927117785857| 0.218337813089626| 0.273350006347331| 0.303595727964478| 0.269888928974119| 0.263223827324214| 0.268237748011832| 0.253447409796204,0.2618,0.0733985853202846,0.0407669555415502,0,0.0264072288504154,0.0119706526622949,0,0.009868448131804,0.00445638994554486,0.959353263322525,0.314687647201586
MYO1C_MOUSE,GVSFYEVPPHLFAVADTVYR,3,-1.38685323519734,-0.0146742595508873,12,2E-05,0.0246376480061114,14100900.5,756.38806,0.24951896730774,0,3,8,0| 1| 2| 3| 6| 7| 9| 13| 16| 24| 31,0.00908408275197368,,0.259222174035459| 0.358568388097354| 0.254038838363443| 0.291961036005966| 0.239719400436666| 0.350255982221286| 0.260104151025561| 0.19002653061968| 0.248017300804925| 0.23651501822789| 0.217893464416898| 0.17025404775889,0.259222174035459,0.0522644020265147,0.0540832898293205,0,0.0566601310845039,0.0257339904628626,0,0.0122985782604102,0.00557867380955543,0.511926587276834,0.680122945692073

